wavelength (nm),n_o,k_o,n_e,k_e
191.9609192,2.013679,0.836974,1.580661,1.009961
193.5591818,1.965299,0.851838,1.577568,1.052888
195.1575223,1.92107,0.869677,1.576802,1.089247
196.7558419,1.880701,0.890113,1.57664,1.120981
198.3542155,1.843952,0.912736,1.576068,1.149611
199.9526155,1.810554,0.937149,1.574383,1.17643
201.551,1.780152,0.963009,1.57093,1.202677
203.1494445,1.752265,0.990213,1.565011,1.230315
204.7479139,1.726684,1.018952,1.557486,1.261925
206.3464246,1.703447,1.049335,1.550348,1.29918
207.9449077,1.682688,1.081376,1.546073,1.342874
209.5434504,1.664598,1.115007,1.547435,1.392943
211.1420193,1.649423,1.150073,1.557439,1.448374
212.7405964,1.637488,1.186269,1.579547,1.506576
214.3391797,1.628978,1.222938,1.615094,1.561803
215.9377839,1.623677,1.259448,1.661599,1.609571
217.5364409,1.621217,1.295337,1.715881,1.647472
219.1351232,1.621155,1.330283,1.774785,1.674326
220.733817,1.622998,1.364092,1.835303,1.689726
222.3325231,1.626211,1.39669,1.89446,1.693825
223.9312573,1.630177,1.428177,1.948895,1.6875
225.5300101,1.634368,1.45908,1.99567,1.673889
227.128744,1.638744,1.489989,2.03449,1.656367
228.72756,1.643449,1.521301,2.065867,1.637241
230.3264074,1.648693,1.55329,2.090564,1.618247
231.9252028,1.654722,1.586131,2.109499,1.600755
233.5240471,1.661801,1.619919,2.123741,1.585848
235.1228814,1.670207,1.654674,2.134533,1.574351
236.7217918,1.68023,1.69034,2.143424,1.566732
238.3206525,1.692122,1.726713,2.151999,1.562495
239.9196213,1.705986,1.763561,2.160932,1.560787
241.5185003,1.721864,1.800697,2.170534,1.561001
243.1174738,1.739774,1.837955,2.180973,1.56266
244.7164094,1.759714,1.875191,2.192333,1.565375
246.3153743,1.78167,1.912275,2.204642,1.568822
247.9143515,1.805621,1.949094,2.21789,1.572727
249.5133837,1.831537,1.985544,2.232044,1.576856
251.1124248,1.859387,2.021538,2.247062,1.581004
252.7114367,1.889138,2.057002,2.26288,1.584945
254.3104415,1.920773,2.091874,2.279358,1.588473
255.9095253,1.954278,2.126089,2.296321,1.591437
257.5085745,1.989643,2.159583,2.313566,1.593723
259.1076957,2.026864,2.192295,2.330874,1.59526
260.7067913,2.065941,2.224163,2.347999,1.596011
262.3058787,2.106882,2.255125,2.364669,1.595977
263.9049855,2.149704,2.285113,2.380567,1.595203
265.5041494,2.194438,2.314056,2.395303,1.593792
267.103246,2.241141,2.341859,2.408325,1.591973
268.7023865,2.289871,2.368345,2.418977,1.590541
270.3015782,2.340579,2.39332,2.427313,1.590639
271.9007173,2.393183,2.416645,2.433781,1.593142
273.4998845,2.447607,2.438218,2.438999,1.598729
275.0991113,2.503783,2.457958,2.443706,1.607922
276.6983149,2.561664,2.475796,2.448741,1.621096
278.2974787,2.621221,2.49167,2.455033,1.638475
279.8966562,2.682453,2.505518,2.463591,1.660125
281.495911,2.745394,2.517269,2.475508,1.685941
283.0951227,2.810122,2.526835,2.491969,1.715623
284.694369,2.876794,2.534081,2.514316,1.748623
286.2936056,2.945717,2.538693,2.544251,1.783794
287.8927936,3.016953,2.539909,2.58275,1.81859
289.4921017,3.090115,2.537118,2.629297,1.850745
291.0913028,3.164722,2.529918,2.682934,1.878653
292.690581,3.240282,2.51804,2.742554,1.901165
294.2898555,3.316298,2.501304,2.807012,1.917482
295.8891191,3.39228,2.479595,2.875185,1.92706
297.4883704,3.46775,2.45285,2.945999,1.92955
299.0876144,3.542228,2.421042,3.018425,1.924747
300.6869351,3.61523,2.384172,3.091478,1.912545
302.286205,3.686254,2.342269,3.164188,1.892922
303.8854461,3.754759,2.295385,3.235575,1.865913
305.4847624,3.820121,2.24361,3.304573,1.831625
307.0840398,3.881521,2.18714,3.369855,1.790318
308.6833188,3.938071,2.12675,3.430007,1.743114
310.2825693,3.989513,2.06342,3.484574,1.691443
311.8818441,4.035843,1.997903,3.533487,1.636387
313.4812034,4.077139,1.930811,3.576813,1.578814
315.0803949,4.113526,1.862664,3.614679,1.519448
316.6797273,4.145151,1.793905,3.647254,1.458903
318.2789552,4.172178,1.724929,3.674727,1.397719
319.8782409,4.19478,1.656085,3.697304,1.336369
321.4775081,4.21314,1.587688,3.715204,1.275282
323.0768508,4.227446,1.520027,3.728657,1.214846
324.6761163,4.237897,1.453366,3.737907,1.155419
326.2753225,4.244702,1.387953,3.743217,1.097338
327.8746661,4.248085,1.324018,3.744872,1.040915
329.4739183,4.248291,1.26178,3.743199,0.986449
331.0731995,4.245611,1.201437,3.738593,0.934216
332.6724607,4.240425,1.143111,3.7316,0.884373
334.2716557,4.233048,1.086748,3.722672,0.836797
335.8709224,4.223678,1.032291,3.712074,0.791355
337.4701332,4.212471,0.979705,3.700006,0.747947
339.069345,4.199562,0.928968,3.686627,0.706491
340.668621,4.185069,0.880065,3.672074,0.666923
342.2678422,4.169098,0.83299,3.656467,0.629185
343.8670795,4.151754,0.787743,3.639913,0.593233
345.4662184,4.133132,0.744327,3.62251,0.559026
347.0654352,4.113328,0.702754,3.604347,0.526534
348.6646226,4.092433,0.663034,3.585513,0.495728
350.2637721,4.070542,0.625183,3.566089,0.466586
351.8629784,4.047751,0.589222,3.546156,0.439089
353.4621422,4.024158,0.555173,3.525797,0.413223
355.0612656,3.999869,0.523059,3.505094,0.388973
356.6604571,3.974998,0.492908,3.484134,0.366332
358.2596257,3.949673,0.464748,3.463009,0.345292
359.8586806,3.924047,0.438609,3.441825,0.325845
361.4578473,3.898326,0.414494,3.420724,0.307973
363.0569378,3.872717,0.392303,3.39984,0.29159
364.655975,3.847353,0.371913,3.379267,0.276599
366.2550943,3.822331,0.35321,3.359071,0.262906
367.854221,3.797733,0.336084,3.339309,0.250423
369.4531706,3.773626,0.320432,3.320029,0.239064
371.052311,3.750065,0.306153,3.301266,0.228747
372.6512417,3.727098,0.293151,3.283054,0.219392
374.2503426,3.704762,0.281333,3.265417,0.210921
375.8493258,3.683089,0.270606,3.248373,0.203259
377.4482416,3.662104,0.260884,3.231937,0.196333
379.0472607,3.641826,0.25208,3.21612,0.190072
380.6462121,3.622268,0.24411,3.200924,0.184406
382.2451577,3.603438,0.236893,3.186351,0.179268
383.8440453,3.585337,0.23035,3.172396,0.174592
385.4429441,3.567964,0.224403,3.15905,0.170316
387.0419279,3.551308,0.218977,3.1463,0.166377
388.6407107,3.535356,0.213999,3.134128,0.162715
390.2396137,3.520087,0.209398,3.122511,0.159274
391.8384762,3.505474,0.205105,3.111419,0.155997
393.4372597,3.491481,0.201055,3.100816,0.15283
395.0360529,3.478057,0.197184,3.090652,0.149724
396.6348233,3.46513,0.193453,3.080856,0.146648
398.2336677,3.452642,0.189856,3.071373,0.143607
399.8323019,3.440558,0.186393,3.062167,0.140608
401.4310848,3.428846,0.183058,3.05321,0.137654
403.0298654,3.417484,0.17985,3.044478,0.134752
404.6284903,3.40645,0.176764,3.035953,0.131905
406.227203,3.395727,0.173798,3.027617,0.129117
407.8257204,3.385298,0.170946,3.019459,0.126392
409.4244291,3.37515,0.168207,3.011465,0.123734
411.0230487,3.365271,0.165575,3.003624,0.121146
412.6215672,3.355648,0.163048,2.995929,0.118632
414.2201125,3.346272,0.160622,2.988372,0.116193
415.8186799,3.337132,0.158293,2.980945,0.113833
417.4171259,3.328221,0.156057,2.973644,0.111554
419.015588,3.31953,0.153912,2.966463,0.109358
420.6140676,3.311051,0.151853,2.959398,0.107249
422.2125682,3.302778,0.149877,2.952446,0.105227
423.8109508,3.294703,0.147982,2.945605,0.103295
425.409366,3.28682,0.146163,2.938872,0.101455
427.0076771,3.279124,0.144417,2.932245,0.099708
428.6060418,3.271609,0.142742,2.925725,0.098056
430.2043259,3.26427,0.141134,2.919311,0.096501
431.8025436,3.257101,0.139591,2.913003,0.095044
433.400863,3.250098,0.138108,2.906803,0.093685
434.9990015,3.243255,0.136684,2.900712,0.092427
436.5972849,3.236569,0.135316,2.894734,0.091271
438.1954311,3.230034,0.134001,2.888877,0.090215
439.7936197,3.223647,0.132736,2.883144,0.089253
441.3917231,3.217404,0.13152,2.87754,0.088381
442.9897703,3.2113,0.13035,2.872065,0.087591
444.5877927,3.205333,0.129223,2.86672,0.086877
446.1858248,3.199498,0.128138,2.861505,0.086235
447.783742,3.193792,0.127092,2.856419,0.085659
449.3817437,3.188212,0.126083,2.851463,0.085143
450.9797088,3.182754,0.12511,2.846634,0.084682
452.5776795,3.177416,0.12417,2.841932,0.084272
454.1755348,3.172194,0.123261,2.837355,0.083907
455.7733195,3.167085,0.122382,2.832901,0.083583
457.3710811,3.162087,0.12153,2.828568,0.083296
458.9688705,3.157197,0.120705,2.824356,0.083041
460.5665706,3.152411,0.119904,2.82026,0.082813
462.1642346,3.147728,0.119125,2.816279,0.08261
463.7619192,3.143145,0.118368,2.812411,0.082427
465.3596841,3.138658,0.117629,2.808653,0.082259
466.9572405,3.134266,0.116909,2.805002,0.082104
468.5548245,3.129966,0.116206,2.801456,0.081958
470.1523237,3.125756,0.115517,2.798012,0.081818
471.7498038,3.121633,0.114842,2.794666,0.08168
473.3471528,3.117594,0.11418,2.791416,0.081541
474.9446213,3.113638,0.113528,2.78826,0.081398
476.5421019,3.109762,0.112887,2.785192,0.081249
478.1394857,3.105963,0.112254,2.782211,0.08109
479.7366622,3.10224,0.111628,2.779313,0.080918
481.3338934,3.09859,0.111009,2.776493,0.080731
482.9312616,3.09501,0.110395,2.773749,0.080527
484.5284738,3.091499,0.109786,2.771076,0.080304
486.125612,3.088054,0.10918,2.76847,0.080058
487.7227619,3.084672,0.108576,2.765927,0.079787
489.3198195,3.08135,0.107973,2.763439,0.079491
490.916874,3.078086,0.107372,2.761002,0.079169
492.5138225,3.074877,0.106772,2.758609,0.078824
494.1107579,3.071721,0.106174,2.756257,0.078456
495.7075784,3.068616,0.105578,2.753943,0.078068
497.3045801,3.065561,0.104985,2.751664,0.077661
498.9012649,3.062552,0.104394,2.749417,0.077237
500.4981334,3.05959,0.103807,2.747201,0.076798
502.094887,3.056673,0.103222,2.745012,0.076344
503.6916299,3.053799,0.10264,2.74285,0.075878
505.2882646,3.050967,0.102062,2.740712,0.0754
506.8848992,3.048176,0.101488,2.738598,0.074912
508.4814374,3.045425,0.100917,2.736506,0.074415
510.0779918,3.042712,0.100351,2.734433,0.073911
511.6744675,3.040037,0.099789,2.732381,0.0734
513.2709812,3.037399,0.099231,2.730346,0.072884
514.8672258,3.034796,0.098677,2.72833,0.072364
516.4635334,3.032228,0.098128,2.72633,0.071841
518.0598126,3.029695,0.097584,2.724346,0.071315
519.6561885,3.027194,0.097045,2.722377,0.070789
521.2523523,3.024726,0.09651,2.720423,0.070263
522.8484297,3.02229,0.095981,2.718483,0.069737
524.4445505,3.019884,0.095457,2.716556,0.069213
526.0406257,3.017509,0.094938,2.714643,0.068692
527.6367898,3.015164,0.094425,2.712743,0.068174
529.2327299,3.012848,0.093917,2.710856,0.06766
530.8285809,3.01056,0.093415,2.708981,0.067152
532.4244823,3.0083,0.092919,2.707118,0.066649
534.0203479,3.006068,0.092428,2.705268,0.066152
535.6160906,3.003863,0.091943,2.703429,0.065663
537.2116221,3.001683,0.091465,2.701602,0.065181
538.8073214,2.99953,0.090992,2.699787,0.064708
540.4031067,2.997403,0.090525,2.697985,0.064244
541.9986579,2.9953,0.090064,2.696194,0.06379
543.5941255,2.993222,0.08961,2.694415,0.063346
545.189664,2.991169,0.089161,2.692649,0.062913
546.7849507,2.98914,0.088719,2.690896,0.062491
548.3803839,2.987134,0.088284,2.689155,0.062081
549.9756401,2.985151,0.087854,2.687428,0.061683
551.5708801,2.983192,0.087431,2.685714,0.061298
553.1660227,2.981255,0.087015,2.684015,0.060926
554.7612339,2.979341,0.086605,2.68233,0.060568
556.3561851,2.97745,0.086201,2.680662,0.060224
557.9512945,2.975581,0.085803,2.679012,0.059892
559.5462332,2.973734,0.085412,2.677378,0.059573
561.1411735,2.971909,0.085026,2.675763,0.059266
562.7360373,2.970105,0.084646,2.674165,0.058971
564.3307454,2.968323,0.084272,2.672586,0.058686
565.9254764,2.966562,0.083903,2.671026,0.058413
567.5201537,2.964822,0.083539,2.669484,0.058149
569.1149612,2.963102,0.083181,2.66796,0.057895
570.7095625,2.961403,0.082827,2.666456,0.05765
572.3038785,2.959723,0.082478,2.664969,0.057414
573.8983608,2.958063,0.082134,2.663502,0.057187
575.4926701,2.956423,0.081795,2.662053,0.056968
577.0869981,2.954802,0.081459,2.660622,0.056756
578.6812712,2.9532,0.081129,2.65921,0.056552
580.2756867,2.951616,0.080802,2.657816,0.056354
581.8696277,2.950051,0.08048,2.65644,0.056163
583.4638376,2.948503,0.080161,2.655082,0.055979
585.0579725,2.946974,0.079846,2.653742,0.0558
586.6519594,2.945462,0.079535,2.652419,0.055627
588.2457245,2.943968,0.079228,2.651114,0.055459
589.8394738,2.94249,0.078924,2.649827,0.055296
591.4334185,2.94103,0.078624,2.648557,0.055138
593.0272081,2.939585,0.078326,2.647304,0.054984
594.6207702,2.938158,0.078032,2.646067,0.054835
596.2143183,2.936746,0.077742,2.644847,0.054689
597.8077832,2.93535,0.077454,2.643644,0.054546
599.4013847,2.93397,0.077169,2.642457,0.054407
600.9947653,2.932605,0.076887,2.641285,0.054271
602.5881466,2.931255,0.076608,2.64013,0.054137
604.1814608,2.92992,0.076331,2.63899,0.054007
605.7746397,2.9286,0.076057,2.637866,0.053878
607.3676145,2.927295,0.075785,2.636756,0.053752
608.9606144,2.926003,0.075516,2.635662,0.053627
610.5538745,2.924726,0.07525,2.634582,0.053504
612.1467285,2.923462,0.074985,2.633516,0.053383
613.7394087,2.922212,0.074723,2.632465,0.053263
615.3321525,2.920976,0.074463,2.631428,0.053143
616.9252032,2.919752,0.074204,2.630404,0.053025
618.5175756,2.918542,0.073948,2.629394,0.052907
620.1101256,2.917345,0.073694,2.628397,0.05279
621.7027922,2.916159,0.073442,2.627413,0.052673
623.2952006,2.914987,0.073191,2.626442,0.052556
624.8875986,2.913826,0.072942,2.625483,0.05244
626.4799236,2.912678,0.072695,2.624537,0.052323
628.0721119,2.911541,0.072449,2.623602,0.052205
629.6644192,2.910416,0.072205,2.622679,0.052088
631.2564643,2.909303,0.071963,2.621767,0.051969
632.8485048,2.9082,0.071722,2.620867,0.05185
634.4404796,2.907109,0.071482,2.619977,0.05173
636.0323269,2.906028,0.071243,2.619098,0.051609
637.6239843,2.904958,0.071006,2.618229,0.051487
639.2157185,2.903899,0.07077,2.61737,0.051363
640.8074707,2.90285,0.070536,2.616521,0.051238
642.3991818,2.901811,0.070302,2.61568,0.051112
643.9904573,2.900781,0.07007,2.614849,0.050984
645.5819043,2.899761,0.069839,2.614025,0.050855
647.1734667,2.898751,0.069609,2.61321,0.050725
648.7647483,2.89775,0.06938,2.612403,0.050594
650.3556871,2.896759,0.069152,2.611603,0.050462
651.9469058,2.895776,0.068926,2.610811,0.050329
653.5380068,2.894802,0.0687,2.610026,0.050195
655.128931,2.893836,0.068476,2.609248,0.05006
656.719967,2.89288,0.068254,2.608477,0.049925
658.3107102,2.891932,0.068032,2.607713,0.049789
659.9014514,2.890992,0.067812,2.606955,0.049652
661.4921344,2.89006,0.067593,2.606203,0.049515
663.0827028,2.889136,0.067375,2.605458,0.049378
664.6730994,2.888221,0.067158,2.604719,0.04924
666.2636247,2.887313,0.066943,2.603986,0.049102
667.8538657,2.886413,0.066729,2.603259,0.048964
669.4441253,2.88552,0.066516,2.602538,0.048825
671.0343494,2.884635,0.066305,2.601822,0.048687
672.6244834,2.883758,0.066094,2.601112,0.048548
674.2144721,2.882887,0.065885,2.600407,0.048409
675.80426,2.882024,0.065677,2.599708,0.048271
677.3941609,2.881168,0.065471,2.599014,0.048132
678.9841234,2.880319,0.065265,2.598325,0.047994
680.5737221,2.879478,0.065061,2.597641,0.047856
682.1632746,2.878642,0.064859,2.596962,0.047718
683.7527279,2.877814,0.064657,2.596288,0.04758
685.3424075,2.876992,0.064457,2.595618,0.047443
686.9315036,2.876177,0.064258,2.594954,0.047306
688.5207213,2.875369,0.06406,2.594294,0.04717
690.1100109,2.874566,0.063864,2.593639,0.047034
691.6993224,2.873771,0.063669,2.592988,0.046898
693.2882176,2.872981,0.063475,2.592342,0.046764
694.8770298,2.872198,0.063282,2.591701,0.046629
696.4660986,2.87142,0.063091,2.591063,0.046495
698.0545914,2.870649,0.062901,2.59043,0.046362
699.6432403,2.869884,0.062712,2.589801,0.04623
701.2319977,2.869125,0.062524,2.589177,0.046098
702.8204173,2.868371,0.062338,2.588556,0.045968
704.4088455,2.867623,0.062153,2.58794,0.045837
705.9972337,2.866881,0.061969,2.587327,0.045708
707.5855326,2.866145,0.061786,2.586719,0.04558
709.1736925,2.865414,0.061605,2.586115,0.045452
710.7616633,2.864689,0.061425,2.585514,0.045325
712.3493945,2.863969,0.061246,2.584918,0.0452
713.9372461,2.863255,0.061068,2.584325,0.045075
715.5251724,2.862545,0.060892,2.583736,0.044951
717.1127121,2.861841,0.060717,2.583151,0.044828
718.7002296,2.861143,0.060543,2.58257,0.044707
720.2876777,2.86045,0.06037,2.581992,0.044586
721.8754292,2.859761,0.060199,2.581418,0.044466
723.4625972,2.859078,0.060029,2.580848,0.044348
725.0499758,2.8584,0.059859,2.580281,0.04423
726.6366699,2.857726,0.059692,2.579717,0.044114
728.2239081,2.857058,0.059525,2.579158,0.043999
729.8107925,2.856394,0.05936,2.578602,0.043885
731.3977045,2.855736,0.059196,2.578049,0.043772
732.9845994,2.855082,0.059033,2.5775,0.043661
734.5709967,2.854432,0.058871,2.576955,0.04355
736.1577193,2.853788,0.05871,2.576412,0.043441
737.7442879,2.853148,0.058551,2.575874,0.043334
739.3306559,2.852512,0.058393,2.575339,0.043227
740.9167767,2.851882,0.058236,2.574807,0.043122
742.5030476,2.851255,0.05808,2.574278,0.043018
744.0889804,2.850633,0.057925,2.573753,0.042915
745.6749754,2.850016,0.057772,2.573232,0.042814
747.2609901,2.849403,0.057619,2.572713,0.042714
748.8465291,2.848794,0.057468,2.572198,0.042615
750.4324519,2.84819,0.057318,2.571687,0.042518
752.0178081,2.847589,0.057169,2.571178,0.042422
753.6034641,2.846993,0.057022,2.570673,0.042328
755.1889212,2.846402,0.056875,2.570172,0.042234
756.7741346,2.845814,0.05673,2.569674,0.042143
758.3590591,2.845231,0.056585,2.569179,0.042052
759.9441149,2.844652,0.056442,2.568688,0.041963
761.5292621,2.844076,0.0563,2.5682,0.041876
763.1139905,2.843505,0.056159,2.567715,0.04179
764.6987252,2.842938,0.05602,2.567234,0.041705
766.283425,2.842375,0.055881,2.566757,0.041621
767.8680486,2.841816,0.055743,2.566283,0.041539
769.4525541,2.841261,0.055606,2.565812,0.041458
771.0368994,2.84071,0.055471,2.565345,0.041378
772.6210421,2.840163,0.055336,2.564881,0.041299
774.2054229,2.839619,0.055202,2.56442,0.041222
775.789519,2.83908,0.055069,2.563963,0.041145
777.3732871,2.838544,0.054938,2.563509,0.04107
778.9571726,2.838012,0.054807,2.563059,0.040996
780.5406462,2.837484,0.054677,2.562612,0.040922
782.12465,2.836959,0.054548,2.562169,0.04085
783.7081605,2.836438,0.05442,2.561728,0.040779
785.2916299,2.835921,0.054293,2.561291,0.040708
786.8745194,2.835407,0.054166,2.560858,0.040639
788.4577861,2.834897,0.054041,2.560427,0.04057
790.0408924,2.83439,0.053916,2.56,0.040503
791.623798,2.833887,0.053792,2.559576,0.040436
793.2069696,2.833387,0.053669,2.559155,0.04037
794.7893533,2.832891,0.053547,2.558737,0.040305
796.3724363,2.832398,0.053426,2.558322,0.04024
797.9546485,2.831908,0.053305,2.557911,0.040177
799.536973,2.831422,0.053185,2.557503,0.040114
801.1193736,2.830939,0.053066,2.557097,0.040052
802.7018139,2.83046,0.052948,2.556695,0.03999
804.2837356,2.829983,0.052831,2.556296,0.039929
805.8656191,2.82951,0.052714,2.555899,0.039869
807.4474272,2.829041,0.052598,2.555506,0.03981
809.0296501,2.828574,0.052482,2.555116,0.039751
810.6111964,2.82811,0.052368,2.554729,0.039693
812.1925535,2.82765,0.052254,2.554344,0.039635
813.7742171,2.827193,0.05214,2.553962,0.039578
815.3556186,2.826738,0.052028,2.553584,0.039522
816.9367189,2.826287,0.051916,2.553208,0.039466
818.5174786,2.825839,0.051805,2.552835,0.039411
820.0984005,2.825393,0.051694,2.552465,0.039356
821.6794512,2.824951,0.051584,2.552097,0.039301
823.2600499,2.824511,0.051474,2.551733,0.039248
824.840705,2.824075,0.051366,2.55137,0.039194
826.421382,2.823641,0.051257,2.551011,0.039141
828.0014933,2.82321,0.05115,2.550654,0.039089
829.5821076,2.822782,0.051043,2.550301,0.039036
831.1620818,2.822357,0.050936,2.549949,0.038985
832.7419333,2.821934,0.050831,2.5496,0.038933
834.3221877,2.821514,0.050725,2.549254,0.038882
835.9016881,2.821097,0.050621,2.548911,0.038832
837.4815234,2.820683,0.050516,2.548569,0.038782
839.0610955,2.820271,0.050413,2.548231,0.038732
840.6403675,2.819862,0.05031,2.547895,0.038682
842.2198746,2.819456,0.050207,2.547561,0.038633
843.7990114,2.819052,0.050105,2.54723,0.038584
845.3783168,2.81865,0.050003,2.546901,0.038535
846.9571809,2.818252,0.049902,2.546575,0.038487
